200.00	9.9999999392253E-9
200.50	9.9999999392253E-9
201.00	9.9999999392253E-9
201.50	8.9144901949112E-7
202.00	6.1083198943379E-7
202.50	7.5575098890113E-7
203.00	9.9999999392253E-9
203.50	5.2540002570822E-7
204.00	9.9999999392253E-9
204.50	3.6226700217412E-7
205.00	9.9999999392253E-9
205.50	9.9999999392253E-9
206.00	2.0562100644383E-7
206.50	2.1534999916639E-7
207.00	9.9999999392253E-9
207.50	9.9999999392253E-9
208.00	3.9793800965526E-7
208.50	9.9999999392253E-9
209.00	9.9999999392253E-9
209.50	5.4314899244901E-8
210.00	5.0538599083438E-8
210.50	5.0877798685178E-7
211.00	7.9019201848496E-7
211.50	9.9999999392253E-9
212.00	2.6116600793102E-7
212.50	9.9999999392253E-9
213.00	5.4741502708566E-7
213.50	3.9242598859346E-7
214.00	9.9999999392253E-9
214.50	1.8310599614324E-7
215.00	1.3228400064236E-7
215.50	9.9999999392253E-9
216.00	3.183770047599E-7
216.50	3.774379990773E-7
217.00	7.3195599270548E-7
217.50	4.2466399463592E-7
218.00	6.8788898488492E-7
218.50	9.9999999392253E-9
219.00	5.4147102446223E-7
219.50	4.157679995842E-7
220.00	1.6962299298484E-7
220.50	9.9999999392253E-9
221.00	6.6898202533139E-8
221.50	2.8892099379618E-8
222.00	9.9999999392253E-9
222.50	2.2958400336393E-7
223.00	3.7497500215977E-7
223.50	9.9999999392253E-9
224.00	1.838230048179E-7
224.50	1.5179399781573E-7
225.00	9.9999999392253E-9
225.50	2.5357300614814E-7
226.00	6.6342899174288E-8
226.50	9.9999999392253E-9
227.00	2.4113001018122E-7
227.50	7.1630597631156E-7
228.00	2.5871699449453E-7
228.50	1.7463200663315E-7
229.00	9.9999999392253E-9
229.50	1.7416400055481E-7
230.00	9.9999999392253E-9
230.50	2.6149101017836E-7
231.00	8.1505199034382E-8
231.50	1.5377500517388E-7
232.00	3.1648698950448E-7
232.50	9.9999999392253E-9
233.00	2.2251400721984E-9
233.50	4.8189900070383E-8
234.00	2.0209100171087E-7
234.50	2.4406099896623E-7
235.00	7.2295897268759E-8
235.50	5.6713099638728E-7
236.00	1.43399006447E-7
236.50	9.9999999392253E-9
237.00	3.9572100263285E-8
237.50	9.4177202925039E-8
238.00	9.517309962348E-8
238.50	1.7591599998923E-7
239.00	1.1802099919578E-7
239.50	5.2736601219294E-7
240.00	4.2344899497948E-7
240.50	1.3158600609131E-7
241.00	1.9002800399903E-7
241.50	3.2655398740644E-7
242.00	9.9999999392253E-9
242.50	2.2236899610562E-7
243.00	2.4065300863185E-7
243.50	1.6047499684646E-7
244.00	1.704879935005E-7
244.50	2.0265700584332E-7
245.00	2.4207699311773E-7
245.50	1.3159199951929E-8
246.00	2.9109401111782E-7
246.50	2.9272999313434E-7
247.00	6.5281099637104E-8
247.50	5.537589800042E-7
248.00	9.9999999392253E-9
248.50	1.6833000415772E-7
249.00	2.0146700308032E-7
249.50	3.1771199360264E-7
250.00	1.8128500300918E-7
250.50	3.0078300028435E-7
251.00	3.2907900049395E-7
251.50	2.1189200083427E-7
252.00	4.5599298914567E-7
252.50	6.1855502053731E-7
253.00	1.9724099331597E-7
253.50	1.6273199321404E-7
254.00	9.9999999392253E-9
254.50	1.7364600068959E-7
255.00	2.3631000090063E-7
255.50	2.2397499321869E-7
256.00	9.9999999392253E-9
256.50	1.0076799838998E-7
257.00	1.7760800119504E-7
257.50	3.3094499940489E-7
258.00	1.7898899784541E-7
258.50	3.2102900604514E-7
259.00	2.7079900632998E-7
259.50	2.1239999625777E-7
260.00	3.7766000104966E-7
260.50	9.9999999392253E-9
261.00	9.5710399605764E-9
261.50	3.6917299439665E-7
262.00	3.0425300678871E-7
262.50	5.0629398629098E-7
263.00	3.2788901194181E-7
263.50	2.3390400372136E-7
264.00	1.3466500092818E-7
264.50	1.9748800639263E-7
265.00	3.5724801250581E-7
265.50	3.9181000488497E-7
266.00	2.3580500396747E-7
266.50	1.4698599670737E-8
267.00	3.2129599958353E-7
267.50	9.9999999392253E-9
268.00	4.7004098746584E-7
268.50	5.6006498994066E-8
269.00	1.1717300196779E-7
269.50	4.078000017671E-7
270.00	6.6810500243264E-8
270.50	2.7683199732564E-7
271.00	2.8971999199712E-7
271.50	9.3921698862687E-8
272.00	1.2305599739193E-7
272.50	1.3988000091558E-7
273.00	9.9999999392253E-9
273.50	4.5704601348007E-7
274.00	2.48880013487E-7
274.50	4.9563999482416E-7
275.00	1.4961599958951E-7
275.50	1.666659983357E-7
276.00	4.3082201273137E-7
276.50	1.6186700690923E-7
277.00	4.7616998699596E-7
277.50	5.0045701982526E-7
278.00	1.1810300293291E-7
278.50	1.6602399455223E-7
279.00	6.1960797381744E-8
279.50	5.4789700243418E-7
280.00	2.9754198749288E-7
280.50	2.4069601067822E-7
281.00	3.5080100246887E-7
281.50	5.8131001878792E-7
282.00	6.2187702098981E-8
282.50	3.6587499607776E-7
283.00	3.9470501178585E-7
283.50	9.9999999392253E-9
284.00	7.9076002634793E-8
284.50	1.4338900200528E-7
285.00	1.5640800654637E-7
285.50	3.8865201190674E-7
286.00	2.5353298838127E-7
286.50	1.2700100171514E-7
287.00	5.1190602334827E-7
287.50	2.4561899181208E-7
288.00	1.4598900577312E-7
288.50	6.4593200477248E-7
289.00	4.5087699618307E-7
289.50	5.9789897477458E-8
290.00	2.8453999334488E-7
290.50	9.9999999392253E-9
291.00	5.2604899991593E-8
291.50	2.4756201355558E-7
292.00	9.9999999392253E-9
292.50	9.5597201266173E-8
293.00	3.0769101044825E-7
293.50	5.400399913924E-7
294.00	5.8890600485029E-7
294.50	3.2969998642329E-7
295.00	4.9751400865716E-7
295.50	9.9999999392253E-9
296.00	4.5792199898642E-7
296.50	9.9999999392253E-9
297.00	4.2397098809488E-7
297.50	1.1424800305804E-7
298.00	3.0354399882526E-7
298.50	9.9999999392253E-9
299.00	4.4134600329926E-7
299.50	9.9999999392253E-9
300.00	4.4369098617381E-8
300.50	2.2608099925492E-7
301.00	3.1830299462854E-7
301.50	9.9999999392253E-9
302.00	4.3494401325006E-7
302.50	4.2351899764981E-7
303.00	1.5137699449497E-7
303.50	3.3278101341239E-7
304.00	2.9116600330781E-7
304.50	6.0751301589335E-7
305.00	9.9999999392253E-9
305.50	1.721639932839E-7
306.00	3.2955500728349E-7
306.50	2.2265899701779E-7
307.00	5.6059002417896E-7
307.50	9.9586799251483E-8
308.00	1.1186300525878E-6
308.50	7.5927300713374E-7
309.00	6.555829941135E-7
309.50	7.3467901984259E-7
310.00	3.3936601084861E-7
310.50	1.3401100318333E-7
311.00	4.3526799231586E-7
311.50	7.0431599397125E-7
312.00	9.3551500413014E-7
312.50	1.3723200709137E-7
313.00	5.1040501602984E-7
313.50	9.9999999392253E-9
314.00	9.9999999392253E-9
314.50	4.5210001076157E-7
315.00	4.9401802471039E-7
315.50	3.6257098656733E-8
316.00	1.441870040253E-6
316.50	1.8600999851515E-7
317.00	9.9999999392253E-9
317.50	3.792740130848E-7
318.00	2.1107300085532E-7
318.50	7.4915101322404E-7
319.00	3.8913299249543E-7
319.50	3.5828298905471E-7
320.00	7.5138098054595E-7
320.50	2.0838299974457E-7
321.00	8.4912198872189E-7
321.50	3.2477398548281E-8
322.00	5.5419002364943E-7
322.50	1.93128997239E-7
323.00	3.9253600903066E-7
323.50	4.9437602456237E-7
324.00	7.425750254697E-7
324.50	1.1014600431736E-6
325.00	4.9080699682236E-7
325.50	9.9999999392253E-9
326.00	1.9474499879379E-7
326.50	5.5345799410134E-7
327.00	5.2515400739139E-7
327.50	6.5695797957233E-7
328.00	9.4152596830099E-8
328.50	2.6736000791061E-7
329.00	9.8044303342704E-8
329.50	9.9999999392253E-9
330.00	5.5451499747505E-7
330.50	2.8703800580843E-7
331.00	1.0791000022436E-6
331.50	1.054900053532E-6
332.00	2.4215600546995E-7
332.50	8.7740397702873E-7
333.00	3.0590499022765E-7
333.50	4.4118701225671E-7
334.00	4.5339700704972E-7
334.50	5.1039899062744E-7
335.00	1.9314100541123E-7
335.50	6.9344497433121E-7
336.00	2.7381599920773E-7
336.50	6.2563100300395E-7
337.00	8.8892498695259E-8
337.50	3.4115601010853E-7
338.00	9.2936897999607E-7
338.50	9.9999999392253E-9
339.00	4.715269881217E-7
339.50	1.4869800679662E-7
340.00	6.876369695874E-8
340.50	9.9999999392253E-9
341.00	9.9999999392253E-9
341.50	5.0186901745519E-8
342.00	7.9926103069283E-8
342.50	2.7213999942433E-8
343.00	8.0622498899174E-7
343.50	6.7665297365238E-7
344.00	9.9999999392253E-9
344.50	1.0199199778071E-6
345.00	4.7144101245067E-7
345.50	1.1086599442933E-6
346.00	4.767719872234E-7
346.50	6.9908497835058E-7
347.00	1.1276899840595E-6
347.50	7.8985897289385E-7
348.00	5.5273397947531E-7
348.50	3.3662598752926E-7
349.00	1.043630049935E-6
349.50	7.5496899398786E-7
350.00	8.8206502368848E-7
350.50	8.4745801132158E-7
351.00	9.9756005056406E-7
351.50	4.578679977385E-7
352.00	3.6268301073505E-7
352.50	1.2934000324094E-6
353.00	2.3118100500596E-7
353.50	7.6730498221877E-7
354.00	6.2108000520311E-7
354.50	4.9123099188364E-7
355.00	4.3120900272697E-7
355.50	6.5891401845874E-7
356.00	8.3897100466857E-7
356.50	2.3975499630069E-7
357.00	6.6759497485691E-7
357.50	4.4152599798508E-7
358.00	5.5871299764476E-7
358.50	5.5425698519684E-7
359.00	6.6801499087887E-7
359.50	3.2765200330687E-7
360.00	7.6934902892845E-8
360.50	6.5841197738337E-7
361.00	6.119860245235E-7
361.50	7.2687299734753E-7
362.00	3.4001701010311E-7
362.50	2.4686301003385E-7
363.00	7.6246197977525E-7
363.50	5.7416298204771E-7
364.00	6.7672698378374E-7
364.50	4.5563101025436E-7
365.00	4.422340111887E-7
365.50	2.7980598815702E-7
366.00	4.1845399323392E-7
366.50	7.7032200351823E-7
367.00	5.867020149708E-7
367.50	3.9589301081833E-7
368.00	5.6512197943448E-7
368.50	4.0015498825596E-7
369.00	7.1655699684925E-7
369.50	5.1984397941851E-7
370.00	5.5744499150023E-7
370.50	2.0624200658403E-7
371.00	6.4226099993903E-7
371.50	7.5230400398141E-7
372.00	6.9381002276714E-7
372.50	6.1955398678037E-7
373.00	1.4245499357912E-7
373.50	5.5899300832607E-7
374.00	1.8686499458909E-7
374.50	1.816959951384E-7
375.00	4.0167299175664E-7
375.50	3.3749600447663E-7
376.00	3.8179800299076E-7
376.50	4.2570999880809E-7
377.00	4.5027400119579E-7
377.50	2.8445001021282E-7
378.00	4.6703800649084E-7
378.50	4.1744098666641E-7
379.00	4.3955898831882E-7
379.50	4.2598401250871E-7
380.00	5.0676499085966E-7
380.50	5.6813297533154E-7
381.00	4.8742697345006E-7
381.50	5.8319500340076E-7
382.00	3.5495099837135E-7
382.50	3.0593000133194E-7
383.00	3.5776000117949E-7
383.50	5.5517301689179E-7
384.00	3.0460000743915E-7
384.50	4.9003398316927E-7
385.00	7.0380599481723E-7
385.50	3.1393298627336E-7
386.00	4.18578991912E-7
386.50	4.7338599529212E-7
387.00	6.2681101553608E-7
387.50	4.1876501200022E-7
388.00	2.2567400037588E-7
388.50	2.8734100965266E-7
389.00	1.1362099883172E-7
389.50	4.3105200120408E-7
390.00	5.6381600188615E-7
390.50	2.4618100269436E-7
391.00	2.0066100603344E-7
391.50	2.9957598712826E-7
392.00	3.1729700822325E-7
392.50	5.2412099194044E-7
393.00	4.2747498696372E-7
393.50	6.076029990254E-7
394.00	3.8605298868788E-7
394.50	3.1883800488686E-7
395.00	3.3358500672875E-7
395.50	3.609549992234E-7
396.00	5.1586999916253E-7
396.50	7.8321896523903E-8
397.00	3.9021600173328E-7
397.50	1.6647500444833E-7
398.00	4.707659968517E-7
398.50	4.6988500912448E-7
399.00	5.4896599976928E-7
399.50	2.9449000749082E-7
400.00	2.5631101152612E-7
400.50	4.026369992971E-7
401.00	5.4522001846635E-7
401.50	2.67300009682E-7
402.00	2.5249599389099E-7
402.50	2.5713899276525E-7
403.00	3.3783200592552E-7
403.50	4.3487298739819E-7
404.00	1.292730047453E-7
404.50	3.9899600778881E-7
405.00	1.0823200113919E-7
405.50	5.8777999356607E-7
406.00	4.7942302217052E-7
406.50	2.7728199825106E-7
407.00	1.9323799449467E-7
407.50	2.0085199992081E-7
408.00	3.7943999586787E-7
408.50	1.1811999911515E-7
409.00	4.0319901017938E-7
409.50	3.7287500731509E-7
410.00	2.9963601377858E-7
410.50	3.8882899389137E-7
411.00	9.5015302292722E-9
411.50	3.9793400219423E-7
412.00	4.9163901394422E-7
412.50	4.0721599248172E-7
413.00	2.313159939149E-7
413.50	3.1402899480781E-7
414.00	1.839269998527E-7
414.50	3.5996100677949E-7
415.00	3.0324198974085E-7
415.50	3.994830137799E-7
416.00	2.4765199668764E-7
416.50	5.3540401268037E-7
417.00	3.7228900851005E-7
417.50	4.3666699411915E-7
418.00	4.7475600695179E-7
418.50	2.0215099993948E-7
419.00	4.0713700855122E-7
419.50	6.2159102753867E-7
420.00	5.3480397355088E-7
420.50	9.5452503501292E-7
421.00	2.2956799057283E-6
421.50	5.8714199440146E-6
422.00	2.2805399567005E-5
422.50	8.533430082025E-5
423.00	0.00034842701279558
423.50	0.0017626399639994
424.00	0.014299400150776
424.50	0.11747200042009
425.00	0.39585998654366
425.50	0.74024200439453
426.00	0.9264469742775
426.50	0.96027600765228
427.00	0.96562600135803
427.50	0.96430397033691
428.00	0.96562999486923
428.50	0.9690660238266
429.00	0.97372299432755
429.50	0.97648602724075
430.00	0.97191601991653
430.50	0.97074198722839
431.00	0.96870100498199
431.50	0.96916502714157
432.00	0.96969997882843
432.50	0.97304600477219
433.00	0.97377097606659
433.50	0.9753350019455
434.00	0.97850799560547
434.50	0.97946798801422
435.00	0.97835201025009
435.50	0.97494500875473
436.00	0.97414702177048
436.50	0.97233200073242
437.00	0.97564202547073
437.50	0.97771698236465
438.00	0.98143297433853
438.50	0.97962999343872
439.00	0.9805999994278
439.50	0.98073500394821
440.00	0.97965401411057
440.50	0.97905397415161
441.00	0.98064398765564
441.50	0.97990298271179
442.00	0.97772800922394
442.50	0.97479301691055
443.00	0.97156500816345
443.50	0.96305799484253
444.00	0.91828900575638
444.50	0.76661497354507
445.00	0.39603599905968
445.50	0.19775100052357
446.00	0.03530739992857
446.50	0.010612700134516
447.00	0.0022549300920218
447.50	0.00056868500541896
448.00	0.00016306100587826
448.50	5.2198400226189E-5
449.00	1.9137200069963E-5
449.50	7.3796300057438E-6
450.00	3.1890499485598E-6
450.50	1.391680029883E-6
451.00	7.5194498094788E-7
451.50	4.1633501268734E-7
452.00	3.357340006005E-7
452.50	2.8831200893364E-7
453.00	1.927720063577E-7
453.50	2.0863400607141E-7
454.00	1.7897100690334E-7
454.50	1.9174099463726E-7
455.00	1.3877399851481E-7
455.50	1.6573399364006E-7
456.00	1.0683500306641E-7
456.50	2.2600599436373E-7
457.00	7.7276098409129E-8
457.50	1.6939300451213E-7
458.00	1.3526900488614E-7
458.50	1.4009400217674E-7
459.00	1.4732299291609E-7
459.50	1.4536399817189E-7
460.00	6.5420600492416E-8
460.50	1.2643499758269E-7
461.00	9.2830099163166E-8
461.50	1.7737100677095E-7
462.00	1.1338200067712E-7
462.50	1.2478899691359E-7
463.00	9.0250800610647E-8
463.50	1.1863500049003E-7
464.00	1.5835300359868E-7
464.50	1.9099900328001E-7
465.00	2.044580043048E-7
465.50	2.8953201081094E-7
466.00	1.8347400043695E-7
466.50	6.6002399989884E-8
467.00	1.3390399544733E-7
467.50	2.4039201207415E-7
468.00	1.2380900216158E-7
468.50	1.2925900705341E-7
469.00	9.3046701010735E-8
469.50	8.3812601303634E-8
470.00	1.76878998559E-7
470.50	1.7287300124735E-7
471.00	1.2172799301879E-7
471.50	1.0255499915957E-7
472.00	1.8324500672406E-7
472.50	4.9755598752199E-8
473.00	1.6216199583141E-7
473.50	1.1300600277764E-7
474.00	1.4942099824111E-7
474.50	6.2895303187815E-8
475.00	1.4994000707702E-7
475.50	1.0172099962347E-7
476.00	1.9891200508937E-7
476.50	1.8244099919684E-7
477.00	1.6907000599531E-7
477.50	1.6615899767203E-7
478.00	9.0910603489647E-8
478.50	8.7136797333187E-8
479.00	1.5998500657588E-7
479.50	1.252829946452E-7
480.00	1.4772000156427E-7
480.50	1.1624300100266E-7
481.00	1.7786699402222E-7
481.50	9.7559102130163E-8
482.00	1.2934900439632E-7
482.50	6.9375296618546E-8
483.00	1.9220399849473E-7
483.50	1.9434500586613E-7
484.00	1.570439991383E-7
484.50	8.5109000735883E-8
485.00	1.7762900483831E-7
485.50	1.8794999334659E-7
486.00	6.3072299383293E-8
486.50	1.3549299637816E-7
487.00	1.3170499357784E-7
487.50	1.1909799724208E-7
488.00	1.4800700398609E-7
488.50	1.1889999740333E-7
489.00	1.262339992536E-7
489.50	1.1093400331674E-7
490.00	8.3409602780193E-8
490.50	2.2014499734269E-7
491.00	2.1032700203705E-7
491.50	2.1562600238667E-7
492.00	1.2432499829629E-7
492.50	1.2271900118321E-7
493.00	8.930660300166E-8
493.50	1.0884500056818E-7
494.00	1.2395699400258E-7
494.50	4.4501799578711E-8
495.00	8.1575599608641E-8
495.50	1.1353100148881E-7
496.00	6.1172400478426E-8
496.50	1.4842200357634E-7
497.00	1.8736399454156E-7
497.50	1.6029500216064E-7
498.00	1.1122899934435E-7
498.50	1.0835500319217E-7
499.00	1.1285300161035E-7
499.50	1.9436400577888E-7
500.00	9.775779830079E-8
500.50	1.3905099649492E-7
501.00	1.291519993174E-7
501.50	1.0214699841526E-7
502.00	1.1929300569591E-7
502.50	3.9984900723766E-8
503.00	4.7019099724821E-8
503.50	1.1137399980043E-7
504.00	1.4651000412869E-7
504.50	1.5273700171292E-7
505.00	2.016579969677E-7
505.50	1.3957100009065E-7
506.00	1.2627199907911E-7
506.50	1.4294900552159E-7
507.00	5.9741097402366E-8
507.50	1.099580018149E-7
508.00	1.1331499649714E-7
508.50	1.848309949537E-7
509.00	1.1969200386375E-7
509.50	1.0748900081126E-7
510.00	6.5012898176064E-8
510.50	1.6054799800713E-7
511.00	1.2652100167543E-7
511.50	1.563650045E-7
512.00	1.8053400197005E-7
512.50	1.8328999829009E-7
513.00	7.45725969864E-8
513.50	7.2961299224517E-8
514.00	1.0546099815656E-7
514.50	1.0470800049234E-7
515.00	1.0403400096948E-7
515.50	1.5145799636684E-7
516.00	1.3801999898533E-7
516.50	7.183319894466E-8
517.00	8.7788301073033E-8
517.50	6.2444797777061E-8
518.00	5.5043301472324E-8
518.50	1.2766599866154E-7
519.00	1.3375100138546E-7
519.50	1.714989963375E-7
520.00	1.1030900282094E-7
520.50	1.191599992012E-7
521.00	1.0334299815895E-7
521.50	4.2865600846653E-8
522.00	2.0865900296485E-7
522.50	2.7262200319456E-7
523.00	1.8955699943035E-7
523.50	1.6648999690005E-7
524.00	1.104579965272E-7
524.50	8.3286501251223E-8
525.00	4.8065700752886E-8
525.50	1.0008700002118E-7
526.00	7.0871600144073E-8
526.50	1.444840052045E-7
527.00	1.6331800622993E-7
527.50	1.374720000058E-7
528.00	2.1214600565145E-7
528.50	2.5190399810526E-7
529.00	1.3123100472967E-7
529.50	1.6397800450818E-8
530.00	1.0417900142556E-7
530.50	5.4613899180822E-8
531.00	9.8573202933494E-8
531.50	1.6367799560157E-7
532.00	9.6255902803932E-8
532.50	1.180750004437E-7
533.00	4.5105398527312E-8
533.50	6.8798300389972E-8
534.00	1.0031099861862E-7
534.50	3.0664399019997E-8
535.00	1.37949996315E-7
535.50	4.807990094946E-8
536.00	1.733319976438E-7
536.50	1.0184000132085E-7
537.00	1.2687800676758E-7
537.50	6.9388200074627E-8
538.00	1.5007999820682E-7
538.50	1.037579977492E-7
539.00	1.9730700628884E-8
539.50	9.821089719253E-8
540.00	2.0676799294961E-7
540.50	1.5961499855166E-7
541.00	1.1101499808319E-7
541.50	1.4243799739688E-7
542.00	1.8501299337004E-7
542.50	1.6159700066964E-7
543.00	1.0728199839605E-7
543.50	1.6424499449386E-7
544.00	8.3138701256757E-8
544.50	7.0542299113185E-8
545.00	2.1116899517892E-7
545.50	1.0803800165604E-7
546.00	1.0522899884791E-7
546.50	1.1674700317599E-7
547.00	1.1368099706033E-7
547.50	2.3042800023632E-7
548.00	9.6378897751492E-8
548.50	1.0779800163618E-7
549.00	1.5326099855884E-7
549.50	9.8398302839087E-8
550.00	1.9878399371009E-7
550.50	1.4871800146921E-7
551.00	1.149300032921E-7
551.50	5.2615099832565E-8
552.00	1.0327099886354E-7
552.50	1.561009952411E-7
553.00	1.9332999556809E-7
553.50	4.4637399554404E-8
554.00	1.9652600258269E-7
554.50	1.244920042609E-7
555.00	1.5258299868037E-7
555.50	1.9149099728111E-7
556.00	4.5492999589669E-8
556.50	7.9031799771201E-8
557.00	2.3932900106161E-8
557.50	8.3092601244061E-8
558.00	9.0267299412972E-8
558.50	7.0781503325179E-8
559.00	8.1211503299983E-8
559.50	1.5909000694592E-7
560.00	9.9999999392253E-9
560.50	1.7976900323902E-7
561.00	5.2001901451604E-8
561.50	1.4984999552325E-7
562.00	1.2127900106407E-7
562.50	5.4683699346469E-8
563.00	1.1014999756753E-7
563.50	1.0392899696399E-7
564.00	1.0618700230225E-7
564.50	1.0429800312295E-7
565.00	8.6793100706473E-8
565.50	8.3872102152327E-8
566.00	1.5269199593604E-7
566.50	5.7012101706277E-8
567.00	4.7067299391301E-8
567.50	2.5031100747697E-8
568.00	5.5272000309969E-8
568.50	7.6394698567128E-8
569.00	5.5388401420942E-8
569.50	8.6669203369638E-8
570.00	7.5499301033233E-8
570.50	9.9999999392253E-9
571.00	1.9545200302673E-7
571.50	9.9999999392253E-9
572.00	2.7339899233425E-8
572.50	5.9716597888837E-8
573.00	8.2303898807368E-8
573.50	5.214100085027E-8
574.00	3.0573900744457E-8
574.50	3.728149877702E-8
575.00	1.2137499538767E-7
575.50	4.0183298466445E-8
576.00	9.9999999392253E-9
576.50	1.0413499751394E-7
577.00	1.3498700468517E-7
577.50	1.1090200047192E-7
578.00	9.9999999392253E-9
578.50	9.3371703258072E-8
579.00	7.0930596507424E-8
579.50	9.9999999392253E-9
580.00	9.9999999392253E-9
580.50	9.9999999392253E-9
581.00	3.0779599313746E-8
581.50	3.7330600832775E-8
582.00	8.1575500132658E-8
582.50	9.9999999392253E-9
583.00	7.8121999536052E-8
583.50	6.5570603169363E-8
584.00	9.9999999392253E-9
584.50	8.1396201778716E-8
585.00	1.5099399774954E-7
585.50	6.1691302732925E-8
586.00	9.9999999392253E-9
586.50	2.2246400277481E-8
587.00	2.3225400269666E-8
587.50	4.1967900266116E-9
588.00	1.0471399747303E-8
588.50	9.9999999392253E-9
589.00	2.3038699836775E-8
589.50	1.0564399843815E-7
590.00	5.8642999789527E-8
590.50	9.9999999392253E-9
591.00	8.7703000417605E-9
591.50	2.3046300867691E-8
592.00	6.2967203007247E-8
592.50	1.0258699667531E-8
593.00	9.9999999392253E-9
593.50	9.9999999392253E-9
594.00	1.1331499649714E-7
594.50	7.5486802586511E-8
595.00	2.4752800698025E-8
595.50	6.9584899620168E-8
596.00	9.9999999392253E-9
596.50	9.9999999392253E-9
597.00	9.5913001985082E-8
597.50	8.7446601071406E-8
598.00	6.8212500536902E-8
598.50	6.2395002942139E-8
599.00	5.9857498513338E-8
599.50	9.9999999392253E-9
600.00	1.3525199449305E-7
600.50	1.2771799617894E-7
601.00	1.1894599794005E-7
601.50	8.2201900397649E-8
602.00	8.6650203456884E-8
602.50	9.9999999392253E-9
603.00	6.8132301578316E-8
603.50	4.8172100974853E-8
604.00	8.0976001015642E-8
604.50	4.4769500107122E-8
605.00	1.3958800337832E-8
605.50	9.9999999392253E-9
606.00	6.3427201268951E-8
606.50	6.5793898329503E-8
607.00	3.6565900529695E-8
607.50	5.8264401303632E-8
608.00	5.5256098363543E-8
608.50	7.728330331247E-8
609.00	1.9362099479281E-8
609.50	9.9999999392253E-9
610.00	7.7144299837073E-8
610.50	4.074189874359E-9
611.00	9.9999999392253E-9
611.50	3.0634698333643E-8
612.00	6.5558502626573E-8
612.50	9.9999999392253E-9
613.00	9.2504803816951E-9
613.50	4.9679499625199E-8
614.00	6.057319978936E-9
614.50	5.459889962367E-8
615.00	4.5780598867395E-8
615.50	9.6203599753153E-8
616.00	3.174330132083E-8
616.50	6.0106302157692E-8
617.00	1.0245700110545E-7
617.50	5.0526299588682E-8
618.00	3.8843200655947E-8
618.50	1.1884299766507E-7
619.00	1.2989700337585E-7
619.50	2.3848100383361E-8
620.00	6.8370901828985E-8
620.50	2.593809966811E-8
621.00	4.246520024509E-9
621.50	9.9999999392253E-9
622.00	3.5024399380745E-8
622.50	4.6341398274308E-8
623.00	1.2493299550442E-7
623.50	3.5312199830884E-9
624.00	3.7534601204925E-8
624.50	2.7021400228477E-8
625.00	9.9999999392253E-9
625.50	1.0870699895804E-7
626.00	6.345769776317E-8
626.50	6.6742600779435E-8
627.00	1.3028299861162E-7
627.50	1.2851299402428E-7
628.00	5.0596899114908E-8
628.50	1.7106300376213E-8
629.00	1.4591900132643E-8
629.50	3.001839843364E-8
630.00	6.243939765227E-8
630.50	7.2330102796059E-8
631.00	1.1174299885397E-7
631.50	6.9076602216001E-9
632.00	6.3766897540063E-8
632.50	6.6629901596116E-8
633.00	3.4454298969422E-8
633.50	2.3940099680431E-8
634.00	9.9999999392253E-9
634.50	3.1194300476045E-8
635.00	9.9999999392253E-9
635.50	9.9999999392253E-9
636.00	2.1552400752967E-8
636.50	9.5940102085024E-8
637.00	1.2646999891786E-8
637.50	2.938059928681E-8
638.00	9.9999999392253E-9
638.50	2.575579927111E-8
639.00	1.134890013077E-7
639.50	4.6473398462865E-9
640.00	9.9999999392253E-9
640.50	7.0999099932578E-8
641.00	9.9999999392253E-9
641.50	9.9999999392253E-9
642.00	8.8595399461155E-8
642.50	1.2971500318315E-8
643.00	9.9999999392253E-9
643.50	9.9999999392253E-9
644.00	5.5679700849964E-9
644.50	1.2428800211239E-8
645.00	9.9999999392253E-9
645.50	3.6164799155358E-8
646.00	9.9999999392253E-9
646.50	1.5196999214595E-8
647.00	4.3001598726278E-8
647.50	6.9039501227053E-8
648.00	9.9999999392253E-9
648.50	9.9999999392253E-9
649.00	4.01042008491E-8
649.50	1.9517699456628E-8
650.00	4.8518700168643E-10
650.50	5.8266998337331E-8
651.00	5.4440700836267E-8
651.50	9.9999999392253E-9
652.00	3.6859400864842E-8
652.50	2.7446299455391E-8
653.00	9.9999999392253E-9
653.50	3.3853599035183E-8
654.00	1.9134599682502E-8
654.50	9.9999999392253E-9
655.00	9.9999999392253E-9
655.50	2.6771500571954E-8
656.00	3.7807200925499E-8
656.50	9.9999999392253E-9
657.00	1.0312700027271E-8
657.50	9.9999999392253E-9
658.00	5.1733998418513E-8
658.50	2.1711100472999E-8
659.00	4.330420111387E-8
659.50	1.0054299615092E-8
660.00	9.9999999392253E-9
660.50	3.7401299834983E-8
661.00	9.9999999392253E-9
661.50	5.8269000735578E-10
662.00	9.9999999392253E-9
662.50	1.2520999514987E-10
663.00	1.6658500356925E-8
663.50	9.9999999392253E-9
664.00	1.7689799847176E-8
664.50	5.3188600190879E-8
665.00	1.0465599942222E-8
665.50	3.3303098945225E-8
666.00	9.9999999392253E-9
666.50	1.3310399893385E-8
667.00	2.1150599494035E-8
667.50	3.1112101339659E-8
668.00	3.2612799572007E-8
668.50	9.9999999392253E-9
669.00	4.3484998712984E-8
669.50	1.4307499895949E-7
670.00	1.5046600410074E-8
670.50	3.0261901429185E-8
671.00	1.1478800132636E-7
671.50	2.2693500056903E-7
672.00	4.5938099901832E-7
672.50	1.0133500154552E-6
673.00	1.2825399835492E-6
673.50	1.6083899936348E-6
674.00	1.6783100136308E-6
674.50	1.8996299786522E-6
675.00	1.7964199514608E-6
675.50	1.6568400269534E-6
676.00	1.4749499541722E-6
676.50	1.2197899650346E-6
677.00	8.6065398363644E-7
677.50	7.1983902216743E-7
678.00	5.4672801752531E-7
678.50	3.4761899314617E-7
679.00	3.0369199066627E-7
679.50	2.7131198976349E-7
680.00	4.000710021046E-7
680.50	2.0979200598958E-7
681.00	1.6987800677271E-7
681.50	1.4658699853953E-7
682.00	2.3757100109378E-7
682.50	2.8760700843122E-7
683.00	3.3353100548084E-7
683.50	3.569020066152E-7
684.00	6.2909901998864E-7
684.50	6.8228598593123E-7
685.00	8.3382201410132E-7
685.50	8.8916698359753E-7
686.00	9.0578600975277E-7
686.50	7.7758301131325E-7
687.00	9.2639902504743E-7
687.50	9.6575104180374E-7
688.00	7.6042698538004E-7
688.50	6.0264102330621E-7
689.00	7.5516499009609E-7
689.50	4.015930130663E-7
690.00	5.5863199577288E-7
690.50	5.8919397361024E-7
691.00	4.4812099986302E-7
691.50	6.6215699234817E-7
692.00	4.9483202246847E-7
692.50	5.2330000244183E-7
693.00	6.5051000319727E-7
693.50	6.658710276497E-7
694.00	6.2460202343573E-7
694.50	6.8513298856487E-7
695.00	9.0207299763279E-7
695.50	8.3655697835638E-7
696.00	5.6645001222932E-7
696.50	7.5851897918255E-7
697.00	7.6307901508699E-7
697.50	6.7334701725486E-7
698.00	5.806559784105E-7
698.50	8.6668097765141E-7
699.00	6.4251599951604E-7
699.50	7.653339935132E-7
700.00	5.2822997531621E-7
700.50	6.5972199081443E-7
701.00	6.13617999079E-7
701.50	4.4946099819754E-7
702.00	3.9298899423557E-7
702.50	5.5377000762746E-7
703.00	5.016090085519E-7
703.50	4.2705400460363E-7
704.00	3.3558700351932E-7
704.50	4.8818998266142E-7
705.00	2.8690899966932E-7
705.50	3.0651500537715E-7
706.00	3.3318198688903E-7
706.50	2.3328199461048E-7
707.00	4.6932998998273E-7
707.50	2.7099699195787E-7
708.00	4.1472299017187E-7
708.50	3.4564300221973E-7
709.00	3.5845900470122E-7
709.50	4.2716999359982E-7
710.00	4.4313699731902E-7
710.50	5.9719297951233E-7
711.00	5.7314798596053E-7
711.50	6.2713201032238E-7
712.00	8.6655899167454E-7
712.50	7.5661500886781E-7
713.00	7.9734900282347E-7
713.50	7.9332198765769E-7
714.00	6.4079398498507E-7
714.50	7.6010297789253E-7
715.00	8.3478300894058E-7
715.50	7.7625298899875E-7
716.00	8.0145298397838E-7
716.50	6.8605999103966E-7
717.00	4.6144199927767E-7
717.50	5.9053297718492E-7
718.00	6.6683497834674E-7
718.50	6.0309099580991E-7
719.00	5.1862298278138E-7
719.50	6.0556999414985E-7
720.00	4.9318401806886E-7
720.50	5.7485300430926E-7
721.00	7.4865499755106E-7
721.50	6.2428802038994E-7
722.00	5.0801600082195E-7
722.50	3.6394300195752E-7
723.00	4.3730798893193E-7
723.50	5.4678997685187E-7
724.00	7.6524497671926E-7
724.50	5.5626401262998E-7
725.00	4.3206401301177E-7
725.50	5.2854801424473E-7
726.00	5.377759748626E-7
726.50	5.977830142001E-7
727.00	4.7910202738422E-7
727.50	1.5181799994934E-7
728.00	4.357439991054E-7
728.50	4.2283500079066E-7
729.00	3.0953398777456E-7
729.50	1.0020699647839E-7
730.00	2.1125299554114E-7
730.50	2.9063400575069E-7
731.00	1.7062400559098E-7
731.50	1.8309400218186E-7
732.00	2.924990099018E-7
732.50	1.3800399756292E-7
733.00	3.3813600452959E-7
733.50	4.4669400267594E-7
734.00	4.557830095564E-7
734.50	5.6602601716804E-7
735.00	4.8309300382243E-7
735.50	6.9163002081041E-7
736.00	4.6180599611034E-7
736.50	8.4428302216111E-7
737.00	1.0679899560273E-6
737.50	8.7458602138213E-7
738.00	1.1977399481111E-6
738.50	1.2272899994059E-6
739.00	9.9014096122119E-7
739.50	7.8695700267417E-7
740.00	8.009379826035E-7
740.50	8.982750046016E-7
741.00	9.4186299293142E-7
741.50	5.6689401617405E-7
742.00	5.6215202448584E-7
742.50	6.5964701434496E-7
743.00	5.4882798394829E-7
743.50	8.2248101307414E-7
744.00	3.5801801345769E-7
744.50	6.0746799590561E-7
745.00	5.0095900405722E-7
745.50	5.4495001222676E-7
746.00	6.7775101797451E-7
746.50	3.1495400776294E-7
747.00	6.8891597493348E-7
747.50	3.050010093375E-7
748.00	6.4972397240126E-7
748.50	4.4427400780478E-7
749.00	5.6557598782092E-7
749.50	2.9826298941771E-7
750.00	3.6636200206885E-7
750.50	3.8908999044907E-7
751.00	5.0569798304423E-7
751.50	8.1068998269984E-7
752.00	3.5897699035559E-7
752.50	6.3108598169492E-7
753.00	7.3172401471311E-7
753.50	8.4091601593173E-7
754.00	9.9765497907356E-7
754.50	1.5249700027198E-6
755.00	1.7657299622442E-6
755.50	2.0922100247844E-6
756.00	1.8638299934537E-6
756.50	1.5052800108606E-6
757.00	6.9181800199658E-7
757.50	3.439849933784E-7
758.00	3.0111999649307E-7
758.50	9.9999999392253E-9
759.00	5.2127302296867E-7
759.50	5.876769932911E-7
760.00	3.8074599473248E-8
760.50	9.9999999392253E-9
761.00	1.2418199446529E-7
761.50	6.9947198255704E-8
762.00	2.6669999897422E-7
762.50	9.9999999392253E-9
763.00	2.3433399576334E-7
763.50	1.454239964005E-7
764.00	9.9999999392253E-9
764.50	9.9999999392253E-9
765.00	1.3056299508207E-7
765.50	2.3993700892788E-7
766.00	1.8651600441899E-7
766.50	1.7277200470289E-7
767.00	2.6207200676254E-7
767.50	3.6321000607131E-7
768.00	9.9999999392253E-9
768.50	2.3155600104019E-7
769.00	2.4075399451817E-8
769.50	3.0093499958639E-7
770.00	9.9999999392253E-9
770.50	1.7828600817893E-8
771.00	2.2788400144691E-7
771.50	2.2052999781863E-7
772.00	1.1495399832029E-7
772.50	9.9999999392253E-9
773.00	3.1940800226948E-8
773.50	1.8947500279864E-7
774.00	9.9999999392253E-9
774.50	1.7609299618471E-7
775.00	3.9726700151732E-8
775.50	9.9999999392253E-9
776.00	5.2852897169942E-7
776.50	1.0439200082146E-7
777.00	9.9999999392253E-9
777.50	9.9999999392253E-9
778.00	9.9999999392253E-9
778.50	2.8959598807887E-7
779.00	9.9999999392253E-9
779.50	9.9999999392253E-9
780.00	4.2304299086027E-7
780.50	4.2932601473922E-8
781.00	9.9999999392253E-9
781.50	2.2998399629159E-8
782.00	2.5400200343029E-7
782.50	9.9999999392253E-9
783.00	6.7115899504699E-9
783.50	1.5390399710213E-7
784.00	9.9999999392253E-9
784.50	9.9999999392253E-9
785.00	5.8684298664957E-7
785.50	3.3869699223033E-7
786.00	9.9999999392253E-9
786.50	4.6035398781896E-7
787.00	1.6113600054268E-7
787.50	2.0257400024093E-7
788.00	8.4040600256685E-8
788.50	1.980610022656E-7
789.00	9.9999999392253E-9
789.50	9.9999999392253E-9
790.00	9.9999999392253E-9
790.50	9.9999999392253E-9
791.00	2.1960799756471E-7
791.50	1.6126199398059E-7
792.00	6.4844198277569E-7
792.50	9.9999999392253E-9
793.00	5.0667200213184E-8
793.50	6.7111199086867E-7
794.00	9.9999999392253E-9
794.50	4.1366800473952E-7
795.00	9.9999999392253E-9
795.50	9.9999999392253E-9
796.00	5.5096398909882E-7
796.50	4.1362099523212E-7
797.00	1.752760070417E-8
797.50	3.4996699582734E-7
798.00	7.118670168893E-7
798.50	5.1081499918837E-8
799.00	9.9999999392253E-9
799.50	9.9999999392253E-9
800.00	1.3805899357067E-7
800.50	2.079719934045E-7
801.00	9.9999999392253E-9
801.50	1.252229964166E-8
802.00	2.6623800408743E-7
802.50	3.1505200581705E-7
803.00	2.8571000143529E-7
803.50	4.4283100919529E-7
804.00	2.5476198928231E-9
804.50	9.8153499550335E-8
805.00	9.9999999392253E-9
805.50	5.4814000804981E-7
806.00	1.1189299584657E-6
806.50	4.0692600578041E-7
807.00	9.9999999392253E-9
807.50	2.2488599427106E-8
808.00	1.3775999718746E-7
808.50	2.8918199745931E-7
809.00	6.6519498886919E-7
809.50	9.9999999392253E-9
810.00	9.9999999392253E-9
810.50	9.9999999392253E-9
811.00	1.04581999949E-7
811.50	2.4721400038175E-8
812.00	9.9999999392253E-9
812.50	9.9999999392253E-9
813.00	6.8999599989183E-7
813.50	3.670550086099E-7
814.00	9.9999999392253E-9
814.50	9.9999999392253E-9
815.00	4.9478899200039E-7
815.50	7.0054301204436E-7
816.00	9.9999999392253E-9
816.50	9.9999999392253E-9
817.00	9.9999999392253E-9
817.50	9.9999999392253E-9
818.00	7.3170497216779E-8
818.50	9.9999999392253E-9
819.00	1.3210899396654E-7
819.50	1.2329499554653E-7
820.00	3.723660029209E-7
820.50	9.9999999392253E-9
821.00	1.2393000403677E-8
821.50	5.1306000159457E-7
822.00	9.9999999392253E-9
822.50	9.9999999392253E-9
823.00	9.9999999392253E-9
823.50	7.3635999342514E-7
824.00	6.0617600183832E-7
824.50	5.8568599570208E-7
825.00	4.6897599759177E-7
825.50	3.5277599863548E-7
826.00	9.9999999392253E-9
826.50	9.9999999392253E-9
827.00	9.9999999392253E-9
827.50	9.9999999392253E-9
828.00	1.3779799701297E-6
828.50	9.9999999392253E-9
829.00	9.9999999392253E-9
829.50	9.9999999392253E-9
830.00	6.4764100216053E-7
830.50	1.110229987944E-7
831.00	1.0351500350225E-6
831.50	9.9999999392253E-9
832.00	9.9999999392253E-9
832.50	9.9999999392253E-9
833.00	6.3888700196912E-7
833.50	9.9999999392253E-9
834.00	9.9999999392253E-9
834.50	1.2622200529222E-6
835.00	5.6474800658179E-7
835.50	9.9999999392253E-9
836.00	1.440469930003E-7
836.50	4.1819799889709E-7
837.00	3.2678900652172E-7
837.50	1.1108099897683E-6
838.00	1.4703499573443E-6
838.50	9.7940494470095E-7
839.00	1.2989499964533E-6
839.50	9.9999999392253E-9
840.00	9.9999999392253E-9
840.50	9.5531595434295E-7
841.00	1.0027500252363E-7
841.50	9.7149802513741E-7
842.00	9.9999999392253E-9
842.50	6.0648102362393E-7
843.00	9.9999999392253E-9
843.50	1.4940000028218E-6
844.00	2.5256099434046E-7
844.50	8.688970183357E-7
845.00	9.9999999392253E-9
845.50	9.9999999392253E-9
846.00	2.2278400138021E-6
846.50	1.0352199524277E-6
847.00	8.5296102270149E-7
847.50	1.546189992041E-6
848.00	9.9999999392253E-9
848.50	3.5138000953339E-7
849.00	9.9999999392253E-9
849.50	2.8545500754262E-6
850.00	2.301309905306E-6
850.50	1.7443500155423E-6
851.00	1.1926199476875E-6
851.50	2.1386600224105E-7
852.00	9.9999999392253E-9
852.50	7.5736402038729E-8
853.00	9.2619001179628E-7
853.50	2.6550898724054E-7
854.00	9.9999999392253E-9
854.50	9.9999999392253E-9
855.00	9.9999999392253E-9
855.50	9.9999999392253E-9
856.00	9.9999999392253E-9
856.50	9.9999999392253E-9
857.00	9.9999999392253E-9
857.50	9.9999999392253E-9
858.00	4.436930112206E-7
858.50	4.951099867867E-7
859.00	5.4662899628966E-7
859.50	4.6366301376111E-7
860.00	3.8080199260548E-7
860.50	9.9999999392253E-9
861.00	9.9999999392253E-9
861.50	9.9999999392253E-9
862.00	9.9999999392253E-9
862.50	9.9999999392253E-9
863.00	2.2486500483865E-7
863.50	9.9999999392253E-9
864.00	9.9999999392253E-9
864.50	9.9999999392253E-9
865.00	9.9999999392253E-9
865.50	9.9999999392253E-9
866.00	4.0212601248868E-8
866.50	9.9999999392253E-9
867.00	9.9999999392253E-9
867.50	9.9999999392253E-9
868.00	9.9999999392253E-9
868.50	9.9999999392253E-9
869.00	9.9999999392253E-9
869.50	9.9999999392253E-9
870.00	1.1271600186546E-7
870.50	9.9999999392253E-9
871.00	9.9999999392253E-9
871.50	9.9999999392253E-9
872.00	9.9999999392253E-9
872.50	9.9999999392253E-9
873.00	9.9999999392253E-9
873.50	9.9999999392253E-9
874.00	9.9999999392253E-9
874.50	9.9999999392253E-9
875.00	9.9999999392253E-9
875.50	9.9999999392253E-9
876.00	9.9999999392253E-9
876.50	9.9999999392253E-9
877.00	9.9999999392253E-9
877.50	9.9999999392253E-9
878.00	9.9999999392253E-9
878.50	9.9999999392253E-9
879.00	9.9999999392253E-9
879.50	9.9999999392253E-9
880.00	2.5463398856118E-7
880.50	1.2983700514724E-7
881.00	5.8107700873222E-9
881.50	2.551250020133E-7
882.00	5.0477200375099E-7
882.50	3.0496698855131E-7
883.00	1.0463200084132E-7
883.50	3.2570699204371E-7
884.00	5.4566697826886E-7
884.50	4.1318402033141E-9
885.00	9.9999999392253E-9
885.50	9.9999999392253E-9
886.00	4.0626599684401E-7
886.50	4.5042901319903E-7
887.00	4.9420600589656E-7
887.50	1.4970299844208E-7
888.00	9.9999999392253E-9
888.50	1.2559900142151E-7
889.00	4.4754500549971E-7
889.50	5.3437901215148E-7
890.00	6.212840162334E-7
890.50	2.3444100349934E-7
891.00	9.9999999392253E-9
891.50	4.0527700662096E-7
892.00	9.6519295311737E-7
892.50	7.9070497349676E-7
893.00	6.1655998706556E-7
893.50	9.7494398687559E-7
894.00	1.3335600215214E-6
894.50	2.2428399404362E-7
895.00	9.9999999392253E-9
895.50	9.9999999392253E-9
896.00	2.5089500255149E-8
896.50	9.9999999392253E-9
897.00	9.9999999392253E-9
897.50	9.9999999392253E-9
898.00	4.4022098677488E-7
898.50	9.9999999392253E-9
899.00	9.9999999392253E-9
899.50	9.9999999392253E-9
900.00	3.8381298850254E-7
900.50	9.9999999392253E-9
901.00	9.9999999392253E-9
901.50	9.9999999392253E-9
902.00	9.9999999392253E-9
902.50	9.9999999392253E-9
903.00	9.9999999392253E-9
903.50	9.9999999392253E-9
904.00	9.9999999392253E-9
904.50	9.9999999392253E-9
905.00	9.9999999392253E-9
905.50	9.9999999392253E-9
906.00	9.9999999392253E-9
906.50	9.9999999392253E-9
907.00	9.9999999392253E-9
907.50	9.9999999392253E-9
908.00	9.9999999392253E-9
908.50	9.9999999392253E-9
909.00	9.9999999392253E-9
909.50	9.9999999392253E-9
910.00	9.9999999392253E-9
910.50	9.9999999392253E-9
911.00	9.4579299059205E-8
911.50	9.9999999392253E-9
912.00	9.9999999392253E-9
912.50	9.9999999392253E-9
913.00	9.9999999392253E-9
913.50	9.9999999392253E-9
914.00	9.3886399099574E-7
914.50	1.007669993669E-6
915.00	1.0759999895527E-6
915.50	1.9532400585831E-7
916.00	9.9999999392253E-9
916.50	9.9999999392253E-9
917.00	9.9999999392253E-9
917.50	1.6979200267997E-7
918.00	7.9525301543981E-7
918.50	2.8806701379835E-7
919.00	9.9999999392253E-9
919.50	9.9999999392253E-9
920.00	9.9999999392253E-9
920.50	9.9999999392253E-9
921.00	9.9999999392253E-9
921.50	9.9999999392253E-9
922.00	9.3504701226266E-7
922.50	9.0499597149574E-8
923.00	9.9999999392253E-9
923.50	9.9999999392253E-9
924.00	3.6215499221726E-7
924.50	9.9999999392253E-9
925.00	9.9999999392253E-9
925.50	9.9999999392253E-9
926.00	2.3675499960518E-7
926.50	9.9999999392253E-9
927.00	9.9999999392253E-9
927.50	9.9999999392253E-9
928.00	9.9999999392253E-9
928.50	9.9999999392253E-9
929.00	5.138090273249E-7
929.50	3.8329000062731E-7
930.00	2.5281499915764E-7
930.50	9.9999999392253E-9
931.00	9.9999999392253E-9
931.50	9.9999999392253E-9
932.00	9.9999999392253E-9
932.50	9.9999999392253E-9
933.00	9.9999999392253E-9
933.50	3.269709907272E-7
934.00	1.1301999620628E-6
934.50	9.9999999392253E-9
935.00	9.9999999392253E-9
935.50	9.9999999392253E-9
936.00	9.9999999392253E-9
936.50	9.9999999392253E-9
937.00	9.9999999392253E-9
937.50	9.9999999392253E-9
938.00	9.9999999392253E-9
938.50	9.9999999392253E-9
939.00	9.9999999392253E-9
939.50	9.9999999392253E-9
940.00	9.9999999392253E-9
940.50	9.9999999392253E-9
941.00	9.9999999392253E-9
941.50	9.9999999392253E-9
942.00	9.9999999392253E-9
942.50	1.7096300553021E-7
943.00	1.3912299436925E-6
943.50	5.5806001597603E-8
944.00	9.9999999392253E-9
944.50	9.9999999392253E-9
945.00	9.9999999392253E-9
945.50	9.9999999392253E-9
946.00	2.3724699360628E-7
946.50	9.9999999392253E-9
947.00	9.9999999392253E-9
947.50	9.9999999392253E-9
948.00	3.8109700994937E-7
948.50	6.7529697389546E-7
949.00	9.7146198640985E-7
949.50	9.9999999392253E-9
950.00	9.9999999392253E-9
950.50	9.9999999392253E-9
951.00	9.9999999392253E-9
951.50	9.9999999392253E-9
952.00	1.0284300060448E-6
952.50	8.1883200664379E-7
953.00	6.1077099644535E-7
953.50	8.0755097542351E-7
954.00	1.0046900342786E-6
954.50	1.0775600145507E-7
955.00	9.9999999392253E-9
955.50	9.9999999392253E-9
956.00	9.9999999392253E-9
956.50	9.9999999392253E-9
957.00	2.1255600302084E-7
957.50	9.9999999392253E-9
958.00	9.9999999392253E-9
958.50	9.9999999392253E-9
959.00	9.9244303441992E-8
959.50	9.9999999392253E-9
960.00	9.9999999392253E-9
960.50	9.9999999392253E-9
961.00	9.9999999392253E-9
961.50	9.9999999392253E-9
962.00	1.1261499821558E-6
962.50	9.9999999392253E-9
963.00	9.9999999392253E-9
963.50	9.9999999392253E-9
964.00	9.9999999392253E-9
964.50	9.9999999392253E-9
965.00	9.9999999392253E-9
965.50	9.9999999392253E-9
966.00	9.9999999392253E-9
966.50	9.9999999392253E-9
967.00	9.9999999392253E-9
967.50	9.9999999392253E-9
968.00	9.9999999392253E-9
968.50	9.9999999392253E-9
969.00	9.9999999392253E-9
969.50	9.9999999392253E-9
970.00	9.9999999392253E-9
970.50	9.9999999392253E-9
971.00	9.9999999392253E-9
971.50	9.9999999392253E-9
972.00	9.9999999392253E-9
972.50	9.9999999392253E-9
973.00	4.9336199481331E-7
973.50	3.9641901139476E-7
974.00	3.0026498620828E-7
974.50	5.5347902616631E-7
975.00	8.0677500591264E-7
975.50	3.7872101188441E-7
976.00	9.9999999392253E-9
976.50	1.8982599669926E-7
977.00	4.2839300817832E-7
977.50	2.3750600064432E-7
978.00	4.6245901330622E-8
978.50	9.9999999392253E-9
979.00	9.9999999392253E-9
979.50	9.9999999392253E-9
980.00	9.9999999392253E-9
980.50	9.9999999392253E-9
981.00	9.9999999392253E-9
981.50	4.7686199877717E-7
982.00	1.1205700047867E-6
982.50	2.1967400698486E-7
983.00	9.9999999392253E-9
983.50	1.8693100400924E-7
984.00	1.0486600103832E-6
984.50	3.803999959473E-7
985.00	9.9999999392253E-9
985.50	5.3117901188671E-8
986.00	3.9813599528316E-7
986.50	9.9999999392253E-9
987.00	9.9999999392253E-9
987.50	9.9999999392253E-9
988.00	9.9999999392253E-9
988.50	9.9999999392253E-9
989.00	9.9999999392253E-9
989.50	9.9999999392253E-9
990.00	9.9999999392253E-9
990.50	4.7201299935296E-7
991.00	1.7133299934358E-6
991.50	9.4874297928982E-7
992.00	1.833419958075E-7
992.50	9.9999999392253E-9
993.00	9.9999999392253E-9
993.50	9.9999999392253E-9
994.00	9.9999999392253E-9
994.50	9.9999999392253E-9
995.00	9.9999999392253E-9
995.50	9.9999999392253E-9
996.00	9.9999999392253E-9
996.50	9.9999999392253E-9
997.00	9.9999999392253E-9
997.50	2.3200999521578E-7
998.00	6.8168401412549E-7
998.50	9.9999999392253E-9
999.00	9.9999999392253E-9
999.50	9.9999999392253E-9
1000.00	9.9999999392253E-9
1000.50	9.9999999392253E-9
1001.00	9.9999999392253E-9
1001.50	9.9999999392253E-9
1002.00	7.5819201583727E-8
1002.50	9.9999999392253E-9
1003.00	9.9999999392253E-9
1003.50	9.9999999392253E-9
1004.00	2.3796999926162E-7
1004.50	9.4884501322667E-7
1005.00	1.6519500150025E-6
1005.50	1.6784799754532E-6
1006.00	1.705299951027E-6
1006.50	7.0536202656513E-7
1007.00	9.9999999392253E-9
1007.50	9.9999999392253E-9
1008.00	9.9999999392253E-9
1008.50	9.9999999392253E-9
1009.00	9.9999999392253E-9
1009.50	9.9999999392253E-9
1010.00	3.5365999906389E-7
1010.50	2.1561800167547E-7
1011.00	7.8784999857362E-8
1011.50	1.4313199869775E-7
1012.00	2.0717099857848E-7
1012.50	2.8496899062702E-7
1013.00	3.6276500736676E-7
1013.50	9.9135399977968E-7
1014.00	1.6203399582082E-6
1014.50	2.1020600797783E-6
1015.00	2.5838999135885E-6
1015.50	1.8237500398754E-6
1016.00	1.0543400321694E-6
1016.50	8.0030702065415E-7
1017.00	5.4816399597257E-7
1017.50	9.9999999392253E-9
1018.00	9.9999999392253E-9
1018.50	9.9999999392253E-9
1019.00	9.9999999392253E-9
1019.50	9.9999999392253E-9
1020.00	1.865320058414E-7
1020.50	9.9999999392253E-9
1021.00	9.9999999392253E-9
1021.50	9.9999999392253E-9
1022.00	1.2195799570236E-7
1022.50	3.2154599693968E-7
1023.00	5.2246099357944E-7
1023.50	4.6841000767017E-7
1024.00	4.1498100245008E-7
1024.50	4.5117499780645E-7
1025.00	4.8747801884019E-7
1025.50	9.9233102446306E-7
1026.00	1.5002899544925E-6
1026.50	2.3051599384871E-7
1027.00	9.9999999392253E-9
1027.50	9.9999999392253E-9
1028.00	9.9999999392253E-9
1028.50	9.9999999392253E-9
1029.00	9.9999999392253E-9
1029.50	9.9999999392253E-9
1030.00	9.9999999392253E-9
1030.50	6.6449501900934E-7
1031.00	1.4601799875891E-6
1031.50	5.0815299346141E-7
1032.00	9.9999999392253E-9
1032.50	9.9999999392253E-9
1033.00	2.9879998919569E-8
1033.50	9.9999999392253E-9
1034.00	9.9999999392253E-9
1034.50	9.9999999392253E-9
1035.00	2.5542900061737E-7
1035.50	9.9999999392253E-9
1036.00	9.9999999392253E-9
1036.50	7.3593803051608E-8
1037.00	4.0735798734204E-7
1037.50	2.4413299115622E-7
1038.00	8.0846497496623E-8
1038.50	9.9111298368371E-7
1039.00	1.9028500446439E-6
1039.50	1.6397200397478E-6
1040.00	1.3760700312559E-6
1040.50	1.2873399555247E-6
1041.00	1.1990599659839E-6
1041.50	4.0563699599261E-7
1042.00	9.9999999392253E-9
1042.50	3.5749400240093E-7
1043.00	1.1074899930463E-6
1043.50	7.7192999015097E-7
1044.00	4.3869400201402E-7
1044.50	5.0208598167956E-7
1045.00	5.6551601801402E-7
1045.50	1.0058599855256E-6
1046.00	1.4442599649556E-6
1046.50	4.2140399614254E-7
1047.00	9.9999999392253E-9
1047.50	9.9999999392253E-9
1048.00	9.9999999392253E-9
1048.50	4.4066300119994E-7
1049.00	1.2624600458366E-6
1049.50	1.8228899278938E-8
1050.00	9.9999999392253E-9
1050.50	9.9999999392253E-9
1051.00	9.9999999392253E-9
1051.50	1.8262200285335E-7
1052.00	1.0096999858433E-6
1052.50	3.7470201164069E-7
1053.00	9.9999999392253E-9
1053.50	3.1305799552683E-7
1054.00	8.8665200337346E-7
1054.50	8.0312497630075E-7
1055.00	7.1945197532841E-7
1055.50	1.164549985333E-6
1056.00	1.6135400073836E-6
1056.50	8.9893302401833E-7
1057.00	1.9255099914517E-7
1057.50	4.7167100092338E-7
1058.00	7.4866602517432E-7
1058.50	1.1623100135694E-6
1059.00	1.5810099966984E-6
1059.50	6.9040197558934E-7
1060.00	9.9999999392253E-9
1060.50	9.8108796464658E-7
1061.00	2.160290023312E-6
1061.50	2.2820699996373E-6
1062.00	2.4038499759627E-6
1062.50	1.9461299416434E-6
1063.00	1.4901199847372E-6
1063.50	1.538169954074E-6
1064.00	1.5862699456193E-6
1064.50	1.8108700032826E-6
1065.00	2.035799980149E-6
1065.50	2.0069298898306E-6
1066.00	1.978130057978E-6
1066.50	1.4823100400463E-6
1067.00	9.832890555117E-7
1067.50	1.6701800404917E-6
1068.00	2.3587099349243E-6
1068.50	1.2980600558876E-6
1069.00	2.4619998839626E-7
1069.50	5.7756898286243E-7
1070.00	9.0826898713203E-7
1070.50	6.4730602389318E-7
1071.00	3.8417599057539E-7
1071.50	6.0730297946066E-7
1072.00	8.2869598827529E-7
1072.50	3.5968301403955E-7
1073.00	9.9999999392253E-9
1073.50	9.9999999392253E-9
1074.00	9.9999999392253E-9
1074.50	7.856120021188E-8
1075.00	5.5339501159324E-7
1075.50	8.8691001565167E-7
1076.00	1.2223399608047E-6
1076.50	1.2531299944385E-6
1077.00	1.2836500218327E-6
1077.50	7.4699698870972E-7
1078.00	2.0980399995096E-7
1078.50	9.9999999392253E-9
1079.00	9.9999999392253E-9
1079.50	9.9999999392253E-9
1080.00	1.4394400693618E-7
1080.50	4.2791100440809E-7
1081.00	7.1501699494547E-7
1081.50	9.9999999392253E-9
1082.00	9.9999999392253E-9
1082.50	9.9999999392253E-9
1083.00	1.0707700539569E-6
1083.50	5.8886598708341E-7
1084.00	1.0710699882566E-7
1084.50	6.1915397964185E-7
1085.00	1.1324600563967E-6
1085.50	5.4436998198071E-7
1086.00	9.9999999392253E-9
1086.50	2.0158099189871E-8
1087.00	8.4823803092604E-8
1087.50	9.8393698522159E-8
1088.00	1.121079975519E-7
1088.50	8.4462101312965E-7
1089.00	1.5699299638072E-6
1089.50	2.2722899757355E-6
1090.00	2.9783600439259E-6
1090.50	2.7826999939862E-6
1091.00	2.5866399937513E-6
1091.50	3.5743300941249E-6
1092.00	4.5611500354426E-6
1092.50	5.1133101806045E-6
1093.00	5.664140189765E-6
1093.50	6.7764199229714E-6
1094.00	7.8857801781851E-6
1094.50	9.4876895673224E-6
1095.00	1.109369986807E-5
1095.50	1.1018400073226E-5
1096.00	1.0943499546556E-5
1096.50	1.0254700100631E-5
1097.00	9.5657796919113E-6
1097.50	8.3857403296861E-6
1098.00	7.209090199467E-6
1098.50	6.097000095906E-6
1099.00	4.9758400564315E-6
1099.50	5.0511798690422E-6
1100.00	5.1267597882543E-6
1100.50	3.9445799302484E-6
1101.00	2.7634300749924E-6
1101.50	2.4564199065935E-6
1102.00	2.1517901132029E-6
1102.50	2.7225798930886E-6
1103.00	3.2978900890157E-6
1103.50	2.4650400973769E-6
1104.00	1.6316599840138E-6
1104.50	1.7568399925949E-6
1105.00	1.8816300553226E-6
1105.50	1.2383700322971E-6
1106.00	5.980029982311E-7
1106.50	1.2069799595338E-6
1107.00	1.8150700498154E-6
1107.50	1.0779799595184E-6
1108.00	3.3660600706753E-7
1108.50	1.4331300235426E-6
1109.00	2.5267800083384E-6
1109.50	2.8324100185273E-6
1110.00	3.1360800676339E-6
1110.50	2.2017700302968E-6
1111.00	1.2607799817488E-6
1111.50	1.1226400147279E-6
1112.00	9.8404598247726E-7
1112.50	5.900669748371E-7
1113.00	1.9679599461142E-7
1113.50	1.15054001526E-6
1114.00	2.1046300844318E-6
1114.50	1.681150024524E-6
1115.00	1.2603600225702E-6
1115.50	8.6542502231168E-7
1116.00	4.6910199102967E-7
1116.50	1.7475599634054E-6
1117.00	3.0387500373763E-6
1117.50	3.6300100418885E-6
1118.00	4.2175302041869E-6
1118.50	3.8946800486883E-6
1119.00	3.5717300761462E-6
1119.50	3.7627000892826E-6
1120.00	3.9523001760244E-6
1120.50	4.864029961027E-6
1121.00	5.7849802033161E-6
1121.50	6.9300599534472E-6
1122.00	8.0670297393226E-6
1122.50	8.6541804193985E-6
1123.00	9.2437003331725E-6
1123.50	1.0460499652254E-5
1124.00	1.1668599654513E-5
1124.50	1.3201900401327E-5
1125.00	1.4720900253451E-5
1125.50	1.6797599528218E-5
1126.00	1.8900300347013E-5
1126.50	2.2561600417248E-5
1127.00	2.6243400498061E-5
1127.50	2.88458995783E-5
1128.00	3.1483999919146E-5
1128.50	3.4471398976166E-5
1129.00	3.744499917957E-5
1129.50	3.793309952016E-5
1130.00	3.8414098526118E-5
1130.50	3.9415899664164E-5
1131.00	4.0422299207421E-5
1131.50	3.8538200897165E-5
1132.00	3.6648201785283E-5
1132.50	3.514999843901E-5
1133.00	3.3643598726485E-5
1133.50	3.1060400942806E-5
1134.00	2.8515700250864E-5
1134.50	2.7609499738901E-5
1135.00	2.669139939826E-5
1135.50	2.556860090408E-5
1136.00	2.4447899704683E-5
1136.50	2.2698199245497E-5
1137.00	2.0969100660295E-5
1137.50	2.0781699276995E-5
1138.00	2.0590900021489E-5
1138.50	1.9537299522199E-5
1139.00	1.8493799871067E-5
1139.50	1.8066100892611E-5
1140.00	1.7638099961914E-5
1140.50	1.7253600162803E-5
1141.00	1.6870300896699E-5
1141.50	1.7376800315105E-5
1142.00	1.7886399291456E-5
1142.50	1.7507700249553E-5
1143.00	1.7131200365839E-5
1143.50	1.7927999579115E-5
1144.00	1.8727800124907E-5
1144.50	1.836539922806E-5
1145.00	1.8000999261858E-5
1145.50	1.903049997054E-5
1146.00	2.0052000763826E-5
1146.50	2.0686400603154E-5
1147.00	2.1321700842236E-5
1147.50	2.2370599253918E-5
1148.00	2.3417100237566E-5
1148.50	2.469920036674E-5
1149.00	2.5981800718E-5
1149.50	2.6774299840326E-5
1150.00	2.7557100111153E-5
1150.50	2.9386999813141E-5
1151.00	3.1227900763042E-5
1151.50	3.3954398531932E-5
1152.00	3.6715198802995E-5
1152.50	3.9897000533529E-5
1153.00	4.3063901102869E-5
1153.50	4.6111701522022E-5
1154.00	4.9129001126857E-5
1154.50	5.3884399676463E-5
1155.00	5.8728899603011E-5
1155.50	6.5999200160149E-5
1156.00	7.3219402111135E-5
1156.50	8.0617297498975E-5
1157.00	8.7942702521104E-5
1157.50	0.00010168599692406
1158.00	0.00011552000069059
1158.50	0.00013033699360676
1159.00	0.0001452069991501
1159.50	0.00016805299674161
1160.00	0.00019089800480288
1160.50	0.00022414099657908
1161.00	0.00025736700627021
1161.50	0.00030254700686783
1162.00	0.0003478380094748
1162.50	0.00041106398566626
1163.00	0.00047394499415532
1163.50	0.00054792297305539
1164.00	0.00062156398780644
1164.50	0.00070539099397138
1165.00	0.00078938098158687
1165.50	0.00085556897101924
1166.00	0.00092183699598536
1166.50	0.00094997999258339
1167.00	0.00097825599368662
1167.50	0.00096441298956051
1168.00	0.00095059402519837
1168.50	0.00091023801360279
1169.00	0.0008697800221853
1169.50	0.00082994200056419
1170.00	0.0007899790070951
1170.50	0.00074376200791448
1171.00	0.0006975699798204
1171.50	0.00066672102548182
1172.00	0.00063594797393307
1172.50	0.00060925300931558
1173.00	0.00058265397092327
1173.50	0.00056497001787648
1174.00	0.00054735998855904
1174.50	0.00053620897233486
1175.00	0.00052503700135276
1175.50	0.00051872001495212
1176.00	0.00051237101433799
1176.50	0.00051254901336506
1177.00	0.0005127260228619
1177.50	0.00051542901201174
1178.00	0.00051815202459693
1178.50	0.00052857998525724
1179.00	0.00053897901671007
1179.50	0.00055187399266288
1180.00	0.00056479498744011
1180.50	0.00058028800413013
1181.00	0.00059580500237644
1181.50	0.00062292197253555
1182.00	0.00065009400714189
1182.50	0.00067841401323676
1183.00	0.00070671102730557
1183.50	0.00074338802369311
1184.00	0.00077970902202651
1184.50	0.0008331750286743
1185.00	0.00088680302724242
1185.50	0.00094175501726568
1186.00	0.00099648104514927
1186.50	0.0010842999909073
1187.00	0.0011724800569937
1187.50	0.0012751299655065
1188.00	0.0013775599654764
1188.50	0.0015078500146046
1189.00	0.0016388900112361
1189.50	0.0018200400518253
1190.00	0.0020008399151266
1190.50	0.0022334100212902
1191.00	0.0024661798961461
1191.50	0.0027642999775708
1192.00	0.0030616701114923
1192.50	0.0034784600138664
1193.00	0.0038906501140445
1193.50	0.0045055202208459
1194.00	0.0051290900446475
1194.50	0.0059268698096275
1195.00	0.0067245401442051
1195.50	0.0079478602856398
1196.00	0.009170520119369
1196.50	0.010937100276351
1197.00	0.012711499817669
1197.50	0.015229200012982
1198.00	0.017751200124621
1198.50	0.021452199667692
1199.00	0.02513450011611
1199.50	0.030560500919819
1200.00	0.035982299596071
